AP Cora 5001
Software_Version;1.4.1
[SAMPLE]
Sample_Name;Bov_c1_before_5
Method;
[PARAMETERS]
Instrument_Type;Cora 5001
Instrument_SN;99119713
Last_SST;4/3/2024 6:42:36 AM +00:00
User_Name;labmanager
Measurement_Started;4/3/2024 3:31:56 PM
Measurement_Finished;4/3/2024 3:32:57 PM
Measurement_Saved;4/3/2024 3:32:57 PM
Wavelength;785
Laser_Power;30
Auto_Exposure;False
Exposure_Time;10000
Averaged_Spectra;3
Probe_Type;Regular Probe (785 nm)
Probe_SN;99101107
Dark_Background;True
User_Background_Spectrum;
Spike_Removal;True
Baseline_Correction;False
Smoothing;False
Normalization;None
[SPECTRUM QUALITY]
Quality_Saturation;False
Quality_SBR;NaN
Quality_Temperature;False
[SPECTRUM]
100.00;4464.70
102.00;4459.12
104.00;4450.52
106.00;4432.85
108.00;4407.80
110.00;4387.66
112.00;4346.28
114.00;4309.37
116.00;4260.51
118.00;4212.75
120.00;4178.44
122.00;4123.42
124.00;4090.53
126.00;4076.16
128.00;4049.89
130.00;4036.21
132.00;4032.78
134.00;4022.62
136.00;4025.78
138.00;4043.19
140.00;4048.03
142.00;4054.18
144.00;4073.19
146.00;4093.61
148.00;4113.16
150.00;4131.12
152.00;4166.56
154.00;4173.06
156.00;4191.36
158.00;4211.14
160.00;4229.57
162.00;4247.42
164.00;4267.62
166.00;4279.90
168.00;4288.32
170.00;4296.73
172.00;4305.61
174.00;4307.42
176.00;4290.20
178.00;4285.97
180.00;4285.99
182.00;4274.45
184.00;4272.61
186.00;4269.11
188.00;4270.53
190.00;4260.93
192.00;4247.40
194.00;4254.23
196.00;4237.06
198.00;4245.98
200.00;4235.13
202.00;4234.94
204.00;4239.82
206.00;4244.13
208.00;4238.04
210.00;4247.22
212.00;4241.84
214.00;4244.29
216.00;4241.28
218.00;4243.84
220.00;4243.15
222.00;4233.65
224.00;4226.02
226.00;4221.37
228.00;4215.05
230.00;4211.38
232.00;4221.94
234.00;4221.62
236.00;4224.31
238.00;4220.77
240.00;4222.15
242.00;4228.60
244.00;4229.91
246.00;4223.67
248.00;4229.51
250.00;4232.81
252.00;4242.52
254.00;4248.11
256.00;4245.08
258.00;4253.01
260.00;4266.04
262.00;4268.99
264.00;4272.73
266.00;4273.10
268.00;4281.89
270.00;4289.51
272.00;4292.43
274.00;4288.31
276.00;4280.22
278.00;4277.78
280.00;4284.07
282.00;4281.18
284.00;4285.70
286.00;4295.48
288.00;4272.36
290.00;4267.06
292.00;4267.57
294.00;4260.78
296.00;4260.01
298.00;4256.47
300.00;4258.96
302.00;4252.34
304.00;4250.90
306.00;4260.70
308.00;4252.14
310.00;4248.09
312.00;4248.56
314.00;4246.43
316.00;4247.36
318.00;4248.50
320.00;4238.74
322.00;4258.70
324.00;4261.22
326.00;4252.03
328.00;4244.49
330.00;4240.27
332.00;4244.53
334.00;4239.07
336.00;4239.55
338.00;4244.61
340.00;4244.99
342.00;4236.14
344.00;4240.73
346.00;4238.59
348.00;4241.43
350.00;4246.91
352.00;4246.33
354.00;4243.32
356.00;4236.13
358.00;4231.30
360.00;4221.79
362.00;4221.52
364.00;4221.57
366.00;4217.53
368.00;4208.22
370.00;4205.72
372.00;4202.85
374.00;4197.70
376.00;4213.85
378.00;4223.51
380.00;4219.68
382.00;4219.49
384.00;4235.73
386.00;4228.48
388.00;4220.05
390.00;4217.56
392.00;4226.58
394.00;4220.25
396.00;4220.89
398.00;4228.76
400.00;4214.34
402.00;4216.52
404.00;4224.23
406.00;4240.71
408.00;4246.50
410.00;4251.49
412.00;4249.62
414.00;4262.32
416.00;4259.28
418.00;4260.81
420.00;4279.83
422.00;4278.72
424.00;4288.68
426.00;4303.17
428.00;4298.43
430.00;4295.01
432.00;4312.74
434.00;4307.13
436.00;4304.37
438.00;4302.75
440.00;4290.64
442.00;4289.95
444.00;4295.19
446.00;4285.90
448.00;4281.33
450.00;4273.88
452.00;4256.02
454.00;4246.81
456.00;4243.75
458.00;4245.27
460.00;4232.61
462.00;4225.61
464.00;4226.60
466.00;4216.66
468.00;4221.46
470.00;4212.76
472.00;4199.77
474.00;4179.56
476.00;4180.30
478.00;4169.42
480.00;4156.64
482.00;4154.83
484.00;4155.63
486.00;4158.90
488.00;4154.57
490.00;4166.22
492.00;4159.88
494.00;4168.75
496.00;4159.54
498.00;4151.99
500.00;4148.23
502.00;4152.01
504.00;4137.97
506.00;4134.73
508.00;4142.06
510.00;4144.80
512.00;4150.94
514.00;4153.13
516.00;4158.26
518.00;4163.33
520.00;4166.68
522.00;4170.79
524.00;4167.91
526.00;4166.20
528.00;4164.62
530.00;4171.84
532.00;4169.07
534.00;4161.58
536.00;4155.27
538.00;4143.05
540.00;4148.68
542.00;4149.93
544.00;4154.71
546.00;4160.34
548.00;4161.18
550.00;4164.66
552.00;4164.48
554.00;4155.12
556.00;4149.32
558.00;4160.03
560.00;4164.55
562.00;4175.16
564.00;4177.63
566.00;4174.10
568.00;4176.67
570.00;4180.36
572.00;4185.93
574.00;4190.80
576.00;4195.09
578.00;4202.60
580.00;4208.76
582.00;4196.93
584.00;4198.59
586.00;4198.22
588.00;4192.81
590.00;4189.20
592.00;4190.81
594.00;4187.03
596.00;4184.47
598.00;4172.48
600.00;4158.89
602.00;4159.71
604.00;4142.24
606.00;4135.86
608.00;4129.05
610.00;4132.77
612.00;4123.02
614.00;4113.45
616.00;4112.61
618.00;4113.74
620.00;4098.71
622.00;4093.99
624.00;4084.97
626.00;4063.44
628.00;4062.01
630.00;4057.47
632.00;4057.92
634.00;4054.60
636.00;4049.24
638.00;4040.47
640.00;4037.72
642.00;4036.52
644.00;4025.84
646.00;4016.78
648.00;4008.66
650.00;4008.88
652.00;4016.55
654.00;4020.41
656.00;4027.99
658.00;4023.92
660.00;4023.20
662.00;4013.22
664.00;4004.34
666.00;3995.09
668.00;3992.69
670.00;3997.03
672.00;3993.47
674.00;3983.42
676.00;3985.43
678.00;3985.16
680.00;3973.21
682.00;3976.93
684.00;3983.74
686.00;3978.03
688.00;3970.06
690.00;3969.41
692.00;3967.79
694.00;3974.55
696.00;3970.72
698.00;3965.52
700.00;3959.35
702.00;3952.27
704.00;3948.71
706.00;3946.49
708.00;3952.65
710.00;3947.92
712.00;3936.14
714.00;3935.98
716.00;3934.29
718.00;3934.95
720.00;3936.53
722.00;3933.88
724.00;3933.03
726.00;3930.79
728.00;3925.23
730.00;3915.02
732.00;3920.06
734.00;3924.77
736.00;3911.10
738.00;3918.21
740.00;3906.26
742.00;3904.30
744.00;3893.05
746.00;3887.77
748.00;3881.52
750.00;3876.96
752.00;3885.56
754.00;3883.64
756.00;3875.54
758.00;3878.36
760.00;3879.34
762.00;3870.21
764.00;3877.43
766.00;3864.09
768.00;3848.42
770.00;3850.09
772.00;3841.38
774.00;3837.54
776.00;3841.38
778.00;3827.46
780.00;3829.20
782.00;3819.94
784.00;3827.24
786.00;3825.24
788.00;3816.29
790.00;3820.92
792.00;3823.83
794.00;3823.18
796.00;3814.73
798.00;3822.77
800.00;3809.81
802.00;3806.92
804.00;3807.89
806.00;3807.76
808.00;3813.10
810.00;3822.35
812.00;3825.72
814.00;3826.69
816.00;3825.35
818.00;3818.13
820.00;3805.09
822.00;3791.68
824.00;3785.03
826.00;3781.27
828.00;3786.03
830.00;3799.02
832.00;3799.28
834.00;3785.09
836.00;3784.24
838.00;3770.59
840.00;3762.02
842.00;3765.38
844.00;3778.87
846.00;3800.10
848.00;3799.72
850.00;3814.21
852.00;3792.01
854.00;3781.32
856.00;3797.93
858.00;3783.40
860.00;3777.39
862.00;3766.50
864.00;3766.24
866.00;3767.89
868.00;3767.64
870.00;3764.30
872.00;3766.23
874.00;3775.45
876.00;3769.80
878.00;3770.96
880.00;3757.43
882.00;3749.35
884.00;3746.10
886.00;3743.63
888.00;3740.62
890.00;3743.36
892.00;3749.12
894.00;3753.06
896.00;3740.41
898.00;3730.76
900.00;3724.23
902.00;3724.52
904.00;3712.77
906.00;3710.12
908.00;3703.59
910.00;3705.11
912.00;3715.22
914.00;3718.24
916.00;3735.40
918.00;3737.37
920.00;3747.79
922.00;3742.74
924.00;3735.92
926.00;3736.73
928.00;3736.83
930.00;3736.66
932.00;3745.88
934.00;3758.70
936.00;3772.13
938.00;3797.25
940.00;3827.95
942.00;3850.69
944.00;3886.08
946.00;3921.35
948.00;3992.42
950.00;4085.46
952.00;4190.60
954.00;4301.64
956.00;4396.73
958.00;4459.90
960.00;4476.74
962.00;4444.93
964.00;4357.12
966.00;4236.01
968.00;4118.62
970.00;3995.52
972.00;3898.26
974.00;3814.26
976.00;3754.18
978.00;3705.53
980.00;3680.38
982.00;3666.99
984.00;3646.86
986.00;3639.25
988.00;3633.48
990.00;3621.73
992.00;3617.70
994.00;3609.07
996.00;3607.74
998.00;3604.80
1000.00;3625.53
1002.00;3633.23
1004.00;3630.42
1006.00;3622.40
1008.00;3614.41
1010.00;3611.97
1012.00;3600.74
1014.00;3612.24
1016.00;3605.46
1018.00;3604.12
1020.00;3617.11
1022.00;3619.46
1024.00;3620.66
1026.00;3605.47
1028.00;3608.73
1030.00;3608.85
1032.00;3609.71
1034.00;3616.40
1036.00;3608.26
1038.00;3611.94
1040.00;3613.23
1042.00;3608.68
1044.00;3600.78
1046.00;3598.22
1048.00;3598.16
1050.00;3595.63
1052.00;3599.35
1054.00;3589.74
1056.00;3596.04
1058.00;3599.39
1060.00;3603.12
1062.00;3605.15
1064.00;3625.79
1066.00;3636.56
1068.00;3646.11
1070.00;3637.54
1072.00;3635.65
1074.00;3628.30
1076.00;3619.67
1078.00;3596.22
1080.00;3584.35
1082.00;3555.71
1084.00;3535.80
1086.00;3523.85
1088.00;3515.71
1090.00;3502.87
1092.00;3485.75
1094.00;3472.50
1096.00;3476.80
1098.00;3465.29
1100.00;3458.25
1102.00;3464.97
1104.00;3464.16
1106.00;3456.75
1108.00;3453.86
1110.00;3443.58
1112.00;3439.05
1114.00;3427.68
1116.00;3419.54
1118.00;3397.35
1120.00;3395.33
1122.00;3393.07
1124.00;3389.06
1126.00;3395.25
1128.00;3390.16
1130.00;3392.16
1132.00;3386.67
1134.00;3379.95
1136.00;3373.74
1138.00;3373.58
1140.00;3372.60
1142.00;3368.99
1144.00;3357.94
1146.00;3362.40
1148.00;3351.44
1150.00;3344.95
1152.00;3349.71
1154.00;3342.10
1156.00;3352.72
1158.00;3344.72
1160.00;3349.18
1162.00;3341.50
1164.00;3335.80
1166.00;3332.79
1168.00;3336.48
1170.00;3332.60
1172.00;3323.50
1174.00;3324.68
1176.00;3320.19
1178.00;3316.29
1180.00;3315.98
1182.00;3296.03
1184.00;3304.66
1186.00;3310.93
1188.00;3305.59
1190.00;3304.49
1192.00;3302.29
1194.00;3302.37
1196.00;3297.67
1198.00;3299.83
1200.00;3295.65
1202.00;3295.31
1204.00;3305.90
1206.00;3298.36
1208.00;3302.16
1210.00;3289.95
1212.00;3292.96
1214.00;3292.78
1216.00;3295.99
1218.00;3293.29
1220.00;3284.39
1222.00;3288.86
1224.00;3279.57
1226.00;3280.22
1228.00;3279.02
1230.00;3290.62
1232.00;3305.61
1234.00;3309.73
1236.00;3309.14
1238.00;3308.62
1240.00;3314.56
1242.00;3319.66
1244.00;3311.80
1246.00;3303.42
1248.00;3307.06
1250.00;3300.64
1252.00;3291.70
1254.00;3290.98
1256.00;3295.26
1258.00;3281.18
1260.00;3277.57
1262.00;3276.86
1264.00;3272.44
1266.00;3277.90
1268.00;3281.50
1270.00;3275.60
1272.00;3260.82
1274.00;3261.92
1276.00;3256.94
1278.00;3245.54
1280.00;3245.16
1282.00;3230.78
1284.00;3224.70
1286.00;3214.79
1288.00;3214.41
1290.00;3205.82
1292.00;3199.13
1294.00;3189.56
1296.00;3196.84
1298.00;3185.58
1300.00;3172.70
1302.00;3178.38
1304.00;3180.13
1306.00;3184.00
1308.00;3177.15
1310.00;3160.20
1312.00;3162.50
1314.00;3168.13
1316.00;3174.00
1318.00;3171.54
1320.00;3171.57
1322.00;3169.07
1324.00;3158.38
1326.00;3150.49
1328.00;3154.57
1330.00;3154.90
1332.00;3143.62
1334.00;3136.68
1336.00;3147.70
1338.00;3144.93
1340.00;3141.10
1342.00;3143.86
1344.00;3142.00
1346.00;3135.77
1348.00;3123.43
1350.00;3116.62
1352.00;3116.54
1354.00;3111.22
1356.00;3110.98
1358.00;3109.85
1360.00;3104.52
1362.00;3100.14
1364.00;3090.70
1366.00;3091.09
1368.00;3094.92
1370.00;3088.36
1372.00;3092.97
1374.00;3092.76
1376.00;3095.19
1378.00;3085.28
1380.00;3083.28
1382.00;3086.24
1384.00;3099.06
1386.00;3100.20
1388.00;3081.85
1390.00;3084.29
1392.00;3091.52
1394.00;3081.12
1396.00;3084.43
1398.00;3074.13
1400.00;3070.13
1402.00;3058.69
1404.00;3064.24
1406.00;3065.54
1408.00;3049.00
1410.00;3051.42
1412.00;3054.59
1414.00;3045.28
1416.00;3039.03
1418.00;3047.98
1420.00;3055.35
1422.00;3041.62
1424.00;3030.45
1426.00;3040.11
1428.00;3026.99
1430.00;3023.04
1432.00;3026.60
1434.00;3031.55
1436.00;3036.19
1438.00;3038.28
1440.00;3037.98
1442.00;3038.83
1444.00;3065.10
1446.00;3064.66
1448.00;3060.15
1450.00;3053.36
1452.00;3059.41
1454.00;3051.64
1456.00;3051.63
1458.00;3041.45
1460.00;3043.21
1462.00;3039.14
1464.00;3018.26
1466.00;3011.95
1468.00;3004.00
1470.00;2982.29
1472.00;2974.83
1474.00;2978.32
1476.00;2952.65
1478.00;2947.69
1480.00;2946.40
1482.00;2931.22
1484.00;2921.40
1486.00;2926.90
1488.00;2921.72
1490.00;2905.22
1492.00;2897.81
1494.00;2888.96
1496.00;2885.88
1498.00;2881.83
1500.00;2881.05
1502.00;2881.07
1504.00;2862.31
1506.00;2870.75
1508.00;2863.08
1510.00;2872.82
1512.00;2855.87
1514.00;2847.40
1516.00;2848.69
1518.00;2853.96
1520.00;2853.50
1522.00;2841.58
1524.00;2836.51
1526.00;2828.25
1528.00;2843.05
1530.00;2827.71
1532.00;2826.28
1534.00;2826.68
1536.00;2830.23
1538.00;2814.82
1540.00;2799.15
1542.00;2808.39
1544.00;2806.07
1546.00;2797.78
1548.00;2803.97
1550.00;2804.19
1552.00;2800.63
1554.00;2789.08
1556.00;2780.24
1558.00;2765.61
1560.00;2771.85
1562.00;2776.73
1564.00;2773.17
1566.00;2765.85
1568.00;2753.93
1570.00;2755.32
1572.00;2749.61
1574.00;2761.83
1576.00;2769.78
1578.00;2762.22
1580.00;2754.57
1582.00;2745.52
1584.00;2758.02
1586.00;2745.55
1588.00;2758.67
1590.00;2750.18
1592.00;2741.56
1594.00;2736.54
1596.00;2751.63
1598.00;2744.63
1600.00;2746.69
1602.00;2764.59
1604.00;2722.72
1606.00;2754.29
1608.00;2745.09
1610.00;2737.75
1612.00;2738.88
1614.00;2722.78
1616.00;2729.70
1618.00;2730.71
1620.00;2731.00
1622.00;2735.72
1624.00;2736.49
1626.00;2736.48
1628.00;2730.71
1630.00;2729.31
1632.00;2732.23
1634.00;2738.64
1636.00;2733.21
1638.00;2732.96
1640.00;2730.56
1642.00;2732.72
1644.00;2728.24
1646.00;2730.48
1648.00;2718.54
1650.00;2712.33
1652.00;2709.70
1654.00;2708.50
1656.00;2708.38
1658.00;2699.13
1660.00;2698.20
1662.00;2691.10
1664.00;2695.61
1666.00;2693.48
1668.00;2695.34
1670.00;2691.95
1672.00;2692.06
1674.00;2690.63
1676.00;2674.43
1678.00;2677.14
1680.00;2658.29
1682.00;2644.15
1684.00;2643.40
1686.00;2631.37
1688.00;2624.03
1690.00;2627.61
1692.00;2605.74
1694.00;2606.77
1696.00;2596.01
1698.00;2590.73
1700.00;2577.61
1702.00;2571.93
1704.00;2557.64
1706.00;2551.12
1708.00;2535.22
1710.00;2539.17
1712.00;2528.09
1714.00;2527.95
1716.00;2517.82
1718.00;2528.83
1720.00;2522.12
1722.00;2510.26
1724.00;2522.33
1726.00;2516.21
1728.00;2496.40
1730.00;2490.60
1732.00;2482.45
1734.00;2480.71
1736.00;2464.84
1738.00;2465.16
1740.00;2465.47
1742.00;2467.47
1744.00;2472.39
1746.00;2461.25
1748.00;2470.29
1750.00;2468.31
1752.00;2456.96
1754.00;2450.67
1756.00;2452.76
1758.00;2451.36
1760.00;2456.37
1762.00;2433.23
1764.00;2426.03
1766.00;2426.23
1768.00;2427.43
1770.00;2425.66
1772.00;2417.73
1774.00;2419.75
1776.00;2418.25
1778.00;2406.71
1780.00;2401.62
1782.00;2395.68
1784.00;2402.67
1786.00;2391.54
1788.00;2382.08
1790.00;2384.56
1792.00;2385.26
1794.00;2391.50
1796.00;2383.82
1798.00;2376.02
1800.00;2377.04
1802.00;2381.04
1804.00;2379.27
1806.00;2366.27
1808.00;2365.91
1810.00;2359.17
1812.00;2358.20
1814.00;2368.95
1816.00;2352.34
1818.00;2345.78
1820.00;2339.05
1822.00;2339.31
1824.00;2341.03
1826.00;2340.65
1828.00;2346.19
1830.00;2332.15
1832.00;2327.42
1834.00;2317.88
1836.00;2316.51
1838.00;2317.77
1840.00;2307.20
1842.00;2311.56
1844.00;2308.82
1846.00;2308.90
1848.00;2293.56
1850.00;2294.59
1852.00;2285.01
1854.00;2292.52
1856.00;2284.88
1858.00;2270.00
1860.00;2272.87
1862.00;2285.75
1864.00;2273.43
1866.00;2258.27
1868.00;2253.65
1870.00;2251.56
1872.00;2244.18
1874.00;2244.45
1876.00;2239.82
1878.00;2237.78
1880.00;2231.39
1882.00;2237.35
1884.00;2228.09
1886.00;2226.59
1888.00;2237.21
1890.00;2233.07
1892.00;2208.74
1894.00;2198.37
1896.00;2202.25
1898.00;2214.73
1900.00;2212.60
1902.00;2208.75
1904.00;2191.56
1906.00;2177.11
1908.00;2219.15
1910.00;2201.54
1912.00;2201.04
1914.00;2201.75
1916.00;2196.26
1918.00;2180.70
1920.00;2172.41
1922.00;2164.66
1924.00;2165.38
1926.00;2178.14
1928.00;2162.60
1930.00;2161.59
1932.00;2151.92
1934.00;2148.18
1936.00;2152.54
1938.00;2135.56
1940.00;2144.41
1942.00;2133.87
1944.00;2147.44
1946.00;2133.43
1948.00;2135.53
1950.00;2118.08
1952.00;2126.41
1954.00;2120.05
1956.00;2121.50
1958.00;2129.73
1960.00;2113.25
1962.00;2119.77
1964.00;2115.34
1966.00;2112.20
1968.00;2102.25
1970.00;2098.51
1972.00;2074.85
1974.00;2083.53
1976.00;2087.14
1978.00;2089.10
1980.00;2076.78
1982.00;2065.73
1984.00;2063.81
1986.00;2055.37
1988.00;2072.62
1990.00;2057.24
1992.00;2061.30
1994.00;2055.20
1996.00;2052.83
1998.00;2049.25
2000.00;2049.43
2002.00;2043.64
2004.00;2036.97
2006.00;2047.16
2008.00;2038.62
2010.00;2030.25
2012.00;2047.29
2014.00;2035.33
2016.00;2026.35
2018.00;2049.50
2020.00;2033.61
2022.00;2032.39
2024.00;2020.55
2026.00;2025.82
2028.00;2010.60
2030.00;1998.11
2032.00;2013.83
2034.00;2000.61
2036.00;2001.21
2038.00;2011.88
2040.00;1999.05
2042.00;1982.81
2044.00;1989.71
2046.00;1980.97
2048.00;1963.73
2050.00;1983.88
2052.00;1976.50
2054.00;1969.74
2056.00;1971.77
2058.00;1965.21
2060.00;1961.90
2062.00;1978.19
2064.00;1947.82
2066.00;1951.36
2068.00;1949.96
2070.00;1957.65
2072.00;1947.33
2074.00;1947.54
2076.00;1936.74
2078.00;1941.63
2080.00;1934.24
2082.00;1937.64
2084.00;1929.58
2086.00;1898.23
2088.00;1940.60
2090.00;1926.31
2092.00;1924.50
2094.00;1908.34
2096.00;1931.31
2098.00;1924.32
2100.00;1912.86
2102.00;1923.30
2104.00;1918.67
2106.00;1896.34
2108.00;1900.22
2110.00;1897.82
2112.00;1905.85
2114.00;1886.55
2116.00;1898.20
2118.00;1870.81
2120.00;1884.15
2122.00;1884.22
2124.00;1868.88
2126.00;1872.23
2128.00;1862.16
2130.00;1857.01
2132.00;1873.87
2134.00;1852.24
2136.00;1845.34
2138.00;1857.67
2140.00;1854.11
2142.00;1835.06
2144.00;1841.75
2146.00;1839.08
2148.00;1846.23
2150.00;1836.66
2152.00;1825.05
2154.00;1820.39
2156.00;1815.40
2158.00;1833.92
2160.00;1821.98
2162.00;1825.29
2164.00;1827.77
2166.00;1816.74
2168.00;1831.21
2170.00;1813.26
2172.00;1810.73
2174.00;1829.67
2176.00;1814.41
2178.00;1818.11
2180.00;1812.17
2182.00;1818.84
2184.00;1795.83
2186.00;1809.00
2188.00;1793.31
2190.00;1790.90
2192.00;1780.54
2194.00;1758.17
2196.00;1805.44
2198.00;1790.39
2200.00;1793.24
2202.00;1764.09
2204.00;1757.45
2206.00;1775.51
2208.00;1767.95
2210.00;1780.14
2212.00;1763.28
2214.00;1776.95
2216.00;1791.25
2218.00;1780.29
2220.00;1776.77
2222.00;1774.96
2224.00;1767.53
2226.00;1759.72
2228.00;1732.65
2230.00;1744.23
2232.00;1726.92
2234.00;1730.33
2236.00;1736.82
2238.00;1729.46
2240.00;1713.15
2242.00;1725.96
2244.00;1727.82
2246.00;1707.30
2248.00;1706.53
2250.00;1712.60
2252.00;1694.52
2254.00;1699.81
2256.00;1707.69
2258.00;1702.89
2260.00;1718.20
2262.00;1719.17
2264.00;1692.95
2266.00;1664.10
2268.00;1694.57
2270.00;1712.18
2272.00;1703.30
2274.00;1686.89
2276.00;1706.00
2278.00;1685.61
2280.00;1687.68
2282.00;1659.57
2284.00;1682.39
2286.00;1668.88
2288.00;1656.98
2290.00;1666.94
2292.00;1662.65
2294.00;1662.07
2296.00;1647.85
2298.00;1660.68
2300.00;1654.28
[ANALYSIS RESULT]
Analysis_Type;None
